Beta,Average Energy,Average Magnetisation
0.1,-9.36,8.68
0.2,-18.52,11.1
0.3,-29.32,10.94
0.4,-38,13.4
0.5,-47.2,13.48
0.6,-54.4,14.82
0.7,-60.32,18.54
0.8,-66.4,18.24
0.9,-71.04,19.28
1,-76.12,23.18
1.1,-80.6,21.2
1.2,-83.44,24.94
1.3,-86.4,31.3
1.4,-89.08,34.78
1.5,-91.2,41.14
